405.11	122.103
411.745	132.547
418.377	148.608
425.003	40.8589
431.624	0.595703
438.24	56.457
444.852	244.862
451.458	513.465
458.06	594.158
464.657	522.608
471.248	274.465
477.835	96.3452
484.416	-22.249
490.993	31.5234
497.566	24.0503
504.133	92.2803
510.695	157.799
517.25	225.316
523.802	254.461
530.35	196.973
536.892	154.995
543.43	77.2671
549.962	-0.984375
556.489	38.4429
563.011	72.4673
569.529	216.738
576.042	278.041
582.551	420.111
589.055	686.983
595.552	830.263
602.046	947.58
608.534	1057.83
615.017	1321.25
621.496	1540.68
627.97	1335.72
634.44	1168.31
640.904	1071.59
647.365	907.239
653.818	668.328
660.269	484.374
666.714	402.982
673.153	538.485
679.589	679.784
686.019	723.367
692.445	917.742
698.867	1415.14
705.284	2277.47
711.694	2578.1
718.102	2235.18
724.504	1484.91
730.901	736.404
737.293	364.958
743.681	131.554
750.064	115.658
756.443	113.883
762.817	117.94
769.185	218.189
775.55	315.019
781.909	497.621
788.263	711.468
794.613	720.771
800.958	588.174
807.299	468.737
813.635	420.292
819.967	484.479
826.293	553.08
832.616	528.396
838.932	475.249
845.244	330.318
851.552	209.458
857.855	304.438
864.154	571.638
870.449	694.455
876.737	537.766
883.022	241.092
889.301	-0.414063
895.576	-11.4131
901.847	8.31348
908.113	41.9053
914.374	85.2451
920.631	123.747
926.884	197.049
933.131	199.719
939.375	162.677
945.613	154.546
951.846	75.7227
958.075	145.859
964.3	499.034
970.521	880.571
976.737	1086.96
982.946	1781.41
989.154	3302.18
995.355	5876.99
1001.55	8402.65
1007.74	8569.64
1013.93	7073.75
1020.12	4194.2
1026.3	1943.33
1032.47	1104.47
1038.64	783.671
1044.81	514.923
1050.97	235.991
1057.12	99.3467
1063.28	76.7246
1069.42	229.135
1075.57	413.131
1081.7	623.99
1087.84	640.311
1093.97	473.928
1100.09	288.41
1106.21	254.94
1109.38	289.682
1115.5	344.55
1121.62	441.113
1127.73	779.716
1133.83	1385.54
1139.93	1780.33
1146.03	1740.69
1152.12	1647.46
1158.21	1637.98
1164.29	1459.18
1170.37	1312.91
1176.45	1345.25
1182.52	1529.78
1188.58	2270.32
1194.65	3351.41
1200.7	3754.81
1206.76	3291.83
1212.8	2288.24
1218.85	1383.38
1224.89	1090.26
1230.92	946.993
1236.95	709.333
1242.98	498.929
1249	455.45
1255.02	416.597
1261.03	573.495
1267.04	771.897
1273.05	1211.46
1279.05	1821.64
1285.05	2108.56
1291.04	1843.03
1297.03	1272.29
1303.01	781.477
1308.99	570.706
1314.96	576.361
1320.93	591.32
1326.9	627.431
1332.86	564.032
1338.82	558.7
1344.77	436.271
1350.72	350.716
1356.67	241.336
1362.61	123.664
1368.54	79.0703
1374.47	128.132
1380.4	159.425
1386.32	185.047
1392.24	133.084
1398.16	6.43848
1404.07	43.1602
1409.98	122.103
1415.88	215.229
1421.78	397.612
1427.67	495.072
1433.56	670.275
1439.45	933.656
1445.33	1155.59
1451.2	1275.73
1457.08	1349.85
1462.95	1326.82
1468.81	1052.45
1474.67	700.959
1480.53	370.499
1486.38	275.549
1492.23	300.082
1498.07	182.046
1503.91	105.09
1509.74	18.2754
1515.57	-15.9082
1521.4	65.6348
1527.23	73.5527
1533.04	93.7842
1538.86	122.947
1544.67	94.8672
1550.47	172.948
1556.28	271.259
1562.07	400.547
1567.87	595.973
1573.66	1026.13
1579.44	1663.5
1585.23	2579.79
1591	4563.3
1596.77	7978.64
1602.55	9170.55
1608.31	8510.06
1614.07	5861.05
1619.83	2610.13
1625.58	1016.58
1631.33	697.373
1637.07	928.52
1642.81	1672.55
1648.55	4106.97
1654.28	7815.58
1660.01	8812.61
1665.74	7645.91
1671.46	4607.32
1677.17	1887.34
1682.88	798.144
1688.59	446.837
1694.3	350.923
1698.04	368.868
1703.75	408.974
1709.44	395.453
1715.14	369.467
1720.83	335.678
1726.52	200.683
1732.2	173.286
1737.88	164.967
1743.55	183.079
1749.22	144.133
1754.89	101.356
1760.55	1.30176
1766.21	11.6934
1771.87	-16.2803
1777.52	-12.4678
1783.16	25.9707
1788.81	65.0322
1794.45	90.0361
1800.08	82.127
1805.71	133.604
1811.34	135.036
1816.96	166.813
1822.58	245.269
1828.2	279.147
1833.81	166.099
1839.42	136.132
1845.02	99.0156
1850.62	105.075
1856.22	136.065
1861.81	125.214
1867.4	147.322
1872.98	119.612
1878.56	41.8584
1884.14	111.745
1889.71	104.653
1895.28	136.099
1900.84	190.976
1906.4	124.14
1911.96	109.064
1917.51	127.11
1923.06	122.688
1928.61	250.101
1934.15	209.74
1939.69	190.612
1945.22	112.948
1950.75	76.3477
1956.28	81.6777
1961.8	109.048
1967.32	216.235
1972.83	156.236
1978.35	150.243
1983.85	141.097
1989.36	132.433
1994.86	148.776
2000.35	172.654
2005.84	111.467
2011.33	149.895
2016.82	67.3906
2022.3	-6.31055
2027.77	30.6104
2033.25	34.0781
2038.72	84.1855
2044.18	154.87
2049.64	169.628
2055.1	124.083
2060.55	86.1406
2066	59.709
2071.45	152.671
2076.89	154.884
2082.33	137.444
2087.77	84.9678
2093.2	89.9844
2098.63	17.5605
2104.05	85.4854
2109.47	104.845
2114.89	100.229
2120.3	153.013
2125.71	119.348
2131.12	2.10254
2136.52	1.75977
2141.92	141.773
2147.31	259.912
2152.7	316.298
2158.09	315.758
2163.47	241.979
2168.85	146.785
2174.23	230.022
2179.6	308.211
2184.97	320.074
2190.33	389.691
2195.69	304.984
2201.05	287.345
2206.4	281.356
2211.75	284.681
2217.1	380.741
2222.44	336.752
2227.78	345.031
2233.12	311.994
2238.45	328.443
2243.78	274.923
2243.88	305.429
2249.21	301.753
2254.54	342.261
2259.86	406.093
2265.18	419.51
2270.49	385.602
2275.8	399.558
2281.11	320.011
2286.42	389.576
2291.72	404.818
2297.01	515.436
2302.31	492.565
2307.6	513.054
2312.88	475.457
2318.17	406.591
2323.45	428.976
2328.72	509.273
2333.99	551.288
2339.26	505.486
2344.53	518.77
2349.79	523.811
2355.05	449.586
2360.3	558.846
2365.55	591.259
2370.8	645.828
2376.04	611.474
2381.28	624.388
2386.52	624.181
2391.75	688.407
2396.98	677.173
2402.2	650.603
2407.43	835.386
2412.65	840.321
2417.86	757.599
2423.07	692.716
2428.28	656.04
2433.48	637.252
2438.69	720.853
2443.88	801.494
2449.08	844.437
2454.27	742.305
2459.46	752.555
2464.64	712.552
2469.82	621.278
2475	647.689
2480.17	625.552
2485.34	600.537
2490.51	527.147
2495.67	447.409
2500.83	413.951
2505.98	397.135
2511.14	444.845
2516.29	536.127
2521.43	571.055
2526.57	589.279
2531.71	476.488
2536.85	376.421
2541.98	455.801
2547.11	434.621
2552.23	582.436
2557.35	694.897
2562.47	687.03
2567.59	612.156
2572.7	565.849
2577.8	535.804
2582.91	652.669
2588.01	723.375
2593.11	769.967
2598.2	831.711
2603.29	655.942
2608.38	536.155
2613.46	489.514
2618.54	365.977
2623.62	468.3
2628.69	485.148
2633.76	450.504
2638.83	271.738
2643.89	179.326
2648.95	139.322
2654.01	72.7285
2659.06	157.511
2664.11	139.545
2669.16	143.219
2674.2	166.609
2679.24	74.7285
2684.28	-29.9238
2689.31	25.458
2694.34	135.397
2699.37	194.107
2704.39	284.6
2709.41	325.975
2714.43	230.814
2719.44	173.426
2724.45	303.842
2729.46	287.373
2734.46	410.313
2739.46	427.477
2744.46	346.453
2749.45	273.518
2754.44	158.697
2759.43	52.3008
2763.98	85.5938
2768.96	133.832
2773.94	179.242
2778.92	285.01
2783.9	193.99
2788.87	152.652
2793.84	20.5176
2798.81	6.32617
2803.77	79.0039
2808.73	166.926
2813.68	320.795
2818.63	282.9
2823.58	153.111
2828.53	100.871
2833.47	73.6445
2838.41	221.305
2843.35	333.695
2848.28	442.9
2853.21	518.084
2858.14	544.711
2863.06	391.34
2867.98	394.973
2872.9	646.531
2877.81	1015.38
2882.72	1269.34
2887.63	1382.9
2892.54	1235.3
2897.44	1025.65
2902.33	877.465
2907.23	844.234
2912.12	865.746
2917.01	854.84
2921.89	1004.66
2926.78	1198.15
2931.65	1537.97
2936.53	2268.2
2941.4	3174.7
2946.27	3549.54
2951.14	3555.17
2956	3231.37
2960.86	2542.64
2965.71	1934.3
2970.57	1510.72
2975.42	1443.91
2980.26	1744.1
2985.11	1858.31
2989.95	1766.24
2994.79	1596.08
2999.62	1573.92
3004.45	1399.59
3009.28	1014.59
3014.1	706.172
3018.93	419.256
3023.74	485.814
3028.56	672.693
3033.37	865.59
3038.18	1013.02
3042.99	1264.35
3047.79	2028.62
3052.59	3862.27
3057.38	6231.62
3062.18	7903.62
3066.97	8277.71
3071.75	7514.01
3076.54	6219.66
3081.32	4710.04
3086.1	3538.5
3090.87	2804.46
3095.64	2485.92
3100.41	2155.48
3105.18	1689.29
3109.94	1139.64
3114.7	700.301
3119.46	372.645
3124.21	241.637
3128.96	182.115
3133.71	188.326
3138.45	201.389
3143.19	306.162
3147.93	398.869
3152.66	419.496
3157.4	296.443
3162.12	184.668
3166.85	164.391
3171.57	98.7383
3176.29	7.93555
3181.01	-13.7207
3185.72	72.084
3190.43	125.33
3195.14	159.482
3199.84	109.34
3204.54	63.4258
3209.24	49.4961
3213.94	81.3105
3218.63	125.109
3223.32	188.414
3228.01	101.359
3232.69	57.002
3237.37	49.7324
3242.05	84.5488
3244.82	116.967
3249.5	226.842
3254.17	296.143
3258.84	258.479
3263.51	211.951
3268.17	167.264
3272.84	103.461
3277.5	10.0059
3282.15	-7.27148
3286.81	51.4141
3291.46	202.15
3296.1	271.846
3300.75	217.85
3305.39	197.201
3310.03	124.037
3314.66	87.7656
3319.3	129.768
3323.93	267.08
3328.55	345.289
3333.18	437.504
3337.8	477.545
3342.42	397.43
3347.03	342.615
3351.64	465.18
3356.25	544.609
3360.86	657.891
3365.46	839.779
3370.06	1000.23
3374.66	1053.86
3379.25	1056.88
3383.85	1081.47
3388.43	1120.85
3393.02	1223.68
3397.6	1314.46
3402.18	1462.76
3406.76	1593.23
3411.33	1548.79
3415.9	1357.73
3420.47	1267.32
3425.04	1106.35
3429.6	1052.78
3434.16	1001.63
3438.72	1091.93
3443.27	1113.56
3447.82	1042.14
3452.37	906.779
3456.91	726.104
3461.46	634.203
3466	650.012
3470.53	640.727
3475.07	748.986
3479.6	833.082
3484.13	717.582
3488.65	594.361
3493.17	469.979
3497.69	360.342
3502.21	355.021
3506.72	426.055
3511.23	526.037
3515.74	517.752
3520.25	494.158
3524.75	454.18
3529.25	297.658
3533.74	134.803
3538.24	65.7578
3542.73	191.043
3547.22	190.543
3551.7	230.475
3556.19	315.922
3560.67	175.752
3565.14	16.7109
3569.62	14.459
3574.09	74.0293
3578.56	273.316
3583.02	492.949
3587.49	712.76
3591.94	1012.76
3596.4	1549.84
3597.65	1497.94
3598.93	-541.406
